Time(s),Displacement(mm),Force(N)
0.0,-265.774,3.2163138562649634
0.1207,-266.186,3.2284450305168413
0.2217,-266.871,3.207619848051117
0.3217,-267.521,3.193466811423926
0.4214,-268.204,3.1789094023216724
0.5217,-268.853,3.149592397879634
0.6218,-269.537,3.133215312639598
0.7221,-270.187,3.112187943936343
0.8216,-270.871,3.087116850482461
0.9218,-271.52,3.064067619403893
1.0229,-272.206,3.0539583075273278
1.1229,-272.856,3.0282806553608523
1.2242,-273.539,3.0123079425958794
1.3241,-274.222,3.0106904526956293
1.4239,-274.872,3.005433610519815
1.5247,-275.555,2.998963650918814
1.6261,-276.24,2.995122112405719
1.7261,-276.889,3.001389885769189
1.8263,-277.573,2.989258711517311
1.9266,-278.222,2.9809690757785274
2.0273,-278.905,2.9844062418165596
2.1269,-279.554,2.9854171730042163
2.2269,-280.238,2.9837996831039657
2.3279,-280.887,2.981777820728653
2.4278,-281.571,2.977936282215558
2.5276,-282.255,2.973285998752338
2.6282,-282.904,2.9803625170659336
2.7282,-283.553,2.9827887519163094
2.8284,-284.24,2.9793515858782773
2.9288,-284.889,2.976520978552839
3.0284,-285.575,2.9757122336027138
3.1288,-286.259,2.97510567489012
3.2289,-286.908,2.9747013024150575
3.3288,-287.592,2.9706575776644315
3.4292,-288.241,2.9688379015266495
3.5288,-288.891,2.95953733460021
3.6292,-289.574,2.965602921726149
3.7288,-290.224,2.9554936098495834
3.8293,-290.91,2.951045512623895
3.9303,-291.593,2.9411383869848615
4.0309,-292.243,2.935679358571516
4.1308,-292.926,2.924963487982357
4.2311,-293.576,2.918291342143824
4.3321,-294.259,2.8978705321531626
4.4316,-294.943,2.8857393579012847
4.5314,-295.592,2.8677447827609988
4.6328,-296.276,2.849952393858244
4.7342,-296.925,2.8240725554542374
4.8336,-297.608,2.7945533647746674
4.9335,-298.258,2.7591707732066895
5.0353,-298.976,2.7150941734248653
5.1359,-299.625,2.6716241323556353
5.2356,-300.275,2.6350284233624697
5.3354,-300.958,2.586503726354957
5.4361,-301.608,2.529689393608661
5.5359,-302.291,2.4746947370001475
5.6359,-302.941,2.4164651005911324
5.7357,-303.624,2.347923966068021
5.8358,-304.274,2.266240726105375
5.9358,-304.957,2.198103964057326
6.0356,-305.641,2.1103551369687414
6.1373,-306.291,2.0092620182030902
6.2369,-306.974,1.9164585351762224
6.3373,-307.623,1.8042451733463496
6.4372,-308.307,1.6788897060769428
6.5377,-308.957,1.555960473657911
6.6382,-309.64,1.420900066987001
6.7379,-310.29,1.268856016363462
6.838,-310.973,1.1014458116875439
6.9374,-311.622,0.9152322869212148
7.039,-312.306,0.7152700980027571
7.1384,-312.955,0.49326960919338747
7.2385,-313.639,0.2490286342555746
7.3388,-314.322,-0.02149655156130753
7.4386,-314.972,-0.3886667589181521
7.54,-315.608,-1.4608603765466464
7.6396,-315.641,-1.2788927627684747
7.7405,-315.641,-1.1488870120358476
7.8402,-315.641,-1.0754934078119849
7.9403,-315.641,-1.0221162411037212
8.0399,-315.64,-0.9849139733979616
8.14,-315.64,-0.9529685478680159
8.2398,-315.64,-0.9252690333262276
8.3395,-315.64,-0.9042416646229721
8.4402,-315.64,-0.8755312188935271
8.5394,-315.64,-0.8662306519670874
8.6402,-315.64,-0.8526841740524901
8.7413,-315.64,-0.8328699227744224
8.8406,-315.64,-0.8261977769358895
8.9408,-315.64,-0.8126512990212924
9.0411,-315.64,-0.8003179385318828
9.1404,-315.64,-0.7885911367550674
9.2404,-315.64,-0.7831321083417222
9.3404,-315.64,-0.774235913890345
9.4407,-315.64,-0.7604872497382165
9.5405,-315.64,-0.7602850635006851
9.6407,-315.64,-0.7582632011253722
9.7407,-315.64,-0.7430992333105243
9.8407,-315.64,-0.7406729984601488
9.9408,-315.64,-0.7364270874719915
10.0406,-315.64,-0.7234871682699882
10.1407,-315.64,-0.7236893545075195
10.2407,-315.64,-0.7176237673815804
10.3411,-315.64,-0.7147931600561422
10.4406,-315.64,-0.7115581802556413
10.5415,-315.64,-0.7067057105548902
10.6422,-315.64,-0.6988204472911693
10.742,-315.64,-0.6982138885785752
10.8433,-315.64,-0.6883067629395417
10.9441,-315.64,-0.684465224426447
11.044,-315.64,-0.6838586657138529
11.1446,-315.64,-0.6788040097755704
11.2463,-315.64,-0.6749624712624757
11.3456,-315.64,-0.67718651987532
11.4465,-315.64,-0.6735471675997565
11.5471,-315.64,-0.6711209327493809
11.6475,-315.64,-0.6606072483977532
11.748,-315.64,-0.6507001227587194
11.849,-315.64,-0.6585853860224402
11.9501,-315.64,-0.6523176126589698
12.0495,-315.64,-0.6581810135473777
12.1504,-315.64,-0.6515088677088445
12.2507,-315.64,-0.6466563980080934
12.3506,-315.64,-0.6434214182075925
12.4508,-315.64,-0.6446345356327803
12.5504,-315.64,-0.6355361549438718
12.6508,-315.64,-0.6355361549438718
12.7515,-315.64,-0.6304814990055891
12.8527,-315.64,-0.6246180981171814
12.9543,-315.64,-0.6205743733665553
13.0546,-315.64,-0.6252246568297755
13.155,-315.64,-0.6227984219793996
13.2553,-315.64,-0.6201700008914928
13.3545,-315.64,-0.6151153449532103
13.4546,-315.64,-0.6159240899033355
13.555,-315.64,-0.6114759926776469
13.6546,-315.64,-0.6102628752524589
13.7567,-315.64,-0.6076344541645521
13.8559,-315.64,-0.6153175311907416
13.956,-315.64,-0.6052082193141765
14.0565,-315.64,-0.6019732395136755
14.1582,-315.64,-0.6027819844638009
14.2583,-315.64,-0.6001535633758939
14.358,-315.64,-0.592268300112173
14.4577,-315.64,-0.6003557496134251
14.558,-315.64,-0.5950989074376114
14.6579,-315.64,-0.5959076523877365
14.7591,-315.64,-0.5918639276371105
14.8587,-315.64,-0.5886289478366098
14.9592,-315.64,-0.59024643773686
15.0588,-315.64,-0.5920661138746417
15.16,-315.64,-0.5918639276371105
15.2599,-315.64,-0.5843830368484525
15.36,-315.64,-0.5835742918983271
15.4597,-315.64,-0.5801371258602949
15.561,-315.64,-0.5771043322973255
15.6607,-315.64,-0.576699959822263
15.762,-315.64,-0.5740715387343558
15.8616,-315.64,-0.5793283809101698
15.9624,-315.64,-0.5756890286346062
16.0617,-315.64,-0.5734649800217619
16.1628,-315.64,-0.5736671662592933
16.2624,-315.64,-0.5692190690336046
16.3627,-315.64,-0.5669950204207603
16.4628,-315.64,-0.5688146965585421
16.5627,-315.64,-0.5698256277461985
16.6625,-315.64,-0.5655797167580412
16.7628,-315.64,-0.5655797167580412
16.8628,-315.64,-0.5617381782449464
16.9625,-315.64,-0.5585031984444457
17.0626,-315.64,-0.562749109432603
17.1627,-315.64,-0.5512244938933187
17.2627,-315.64,-0.5564813360691327
17.3628,-315.64,-0.5520332388434441
17.4628,-315.64,-0.5512244938933187
17.5629,-315.64,-0.5502135627056624
17.6629,-315.64,-0.550011376468131
17.7629,-315.64,-0.5504157489431937
17.8628,-315.64,-0.5568857085441953
17.9626,-315.64,-0.549404817755537
18.0629,-315.64,-0.5506179351807249
18.1629,-315.64,-0.5413173682542849
18.2627,-315.64,-0.543945789342192
18.3636,-315.64,-0.538688947166378
18.4635,-315.64,-0.538688947166378
18.565,-315.64,-0.5382845746913155
18.6653,-315.64,-0.5370714572661276
18.7647,-315.64,-0.5360605260784712
18.8653,-315.64,-0.5388911334039094
18.9652,-315.64,-0.538688947166378
19.0659,-315.64,-0.534645222415752
19.1655,-315.64,-0.5316124288527826
19.2662,-315.64,-0.5320168013278451
19.3657,-315.64,-0.5354539673658774
19.4664,-315.64,-0.5320168013278451
19.5657,-315.64,-0.532623360040439
19.6662,-315.64,-0.5314102426152513
19.7664,-315.64,-0.5340386637031582
19.8661,-315.64,-0.5299949389525321
19.9664,-315.64,-0.5245359105391869
20.0665,-315.64,-0.5253446554893122
20.168,-315.64,-0.5249402830142494
20.2688,-315.64,-0.5166506472754661
20.369,-315.64,-0.5206943720260921
20.4689,-315.64,-0.5194812546009044
20.569,-315.64,-0.5164484610379348
20.6701,-315.64,-0.5156397160878097
20.7706,-315.64,-0.5126069225248401
20.8722,-315.64,-0.5148309711376844
20.972,-315.64,-0.5128091087623713
21.0725,-315.64,-0.5176615784631227
21.1741,-315.64,-0.5174593922255915
21.2738,-315.64,-0.5196834408384358
21.3735,-315.64,-0.5186725096507792
21.4738,-315.64,-0.5150331573752158
21.5735,-315.64,-0.5146287849001531
21.6739,-315.64,-0.5136178537124967
21.7738,-315.64,-0.5093719427243394
21.8751,-315.64,-0.5124047362873088
21.9748,-315.64,-0.5101806876744645
22.0752,-315.64,-0.5099785014369332
22.1754,-315.64,-0.5067435216364322
22.275,-315.64,-0.5091697564868081
22.3747,-315.64,-0.508563197774214
22.4761,-315.64,-0.5047216592611192
22.5763,-315.64,-0.5049238454986508
22.6759,-315.64,-0.5022954244107437
22.7758,-315.64,-0.5022954244107437
22.8765,-315.64,-0.5012844932230872
22.9767,-315.64,-0.5000713757978994
23.077,-315.64,-0.5024976106482749
23.1767,-315.64,-0.5022954244107437
23.277,-315.64,-0.5004757482729619
23.3772,-315.64,-0.49724076847246124
23.4766,-315.64,-0.4984538858976489
23.5772,-315.64,-0.4982516996601176
23.6767,-315.64,-0.5012844932230872
23.7776,-315.64,-0.49784732718505503
23.8791,-315.64,-0.48895113273367785
23.9796,-315.64,-0.4919839262966473
24.0802,-315.64,-0.4907708088714596
24.1804,-315.64,-0.4877380153084899
24.2802,-315.64,-0.4915795538215847
24.3803,-315.64,-0.49441016114702285
24.4803,-315.64,-0.4893555052087404
24.5802,-315.64,-0.48571615293317694
24.6812,-315.64,-0.4901642501588655
24.7809,-315.64,-0.4915795538215847
24.8808,-315.64,-0.4901642501588655
24.9808,-315.64,-0.48794020154602125
25.0809,-315.64,-0.4847052217455205
25.1808,-315.64,-0.48672708412083354
25.2824,-315.64,-0.4822789868951447
25.3825,-315.64,-0.48713145659589613
25.4825,-315.64,-0.4814702419450196
25.5832,-315.64,-0.4808636832324258
25.6831,-315.64,-0.48328991808280136
25.7832,-315.64,-0.4816724281825509
25.8832,-315.64,-0.4747980961064867
25.9835,-315.64,-0.47884182085711274
26.0841,-315.64,-0.4768199584817997
26.1844,-315.64,-0.47520246858154924
26.2847,-315.64,-0.4754046548190805
26.3852,-315.64,-0.47843744838205016
26.4864,-315.64,-0.47823526214451867
26.5862,-315.64,-0.48066149699489447
26.6859,-315.64,-0.48106586946995705
26.7859,-315.64,-0.4786396346195815
26.8857,-315.64,-0.4792461933321753
26.987,-315.64,-0.47742651719439355
27.0878,-315.64,-0.4743937236314241
27.1881,-315.64,-0.47742651719439355
27.2885,-315.64,-0.4780330759069874
27.3882,-315.64,-0.4725740474936424
27.4885,-315.64,-0.47419153739389264
27.5886,-315.64,-0.46772157779289103
27.6891,-315.64,-0.46853032274301637
27.7889,-315.64,-0.47176530254351706
27.8886,-315.64,-0.46772157779289103
27.9887,-315.64,-0.46590190165510925
28.089,-315.64,-0.4693390676931415
28.1901,-315.64,-0.4632734805672024
28.2911,-315.64,-0.4632734805672024
28.3921,-315.64,-0.4632734805672024
28.4922,-315.64,-0.4628691080921398
28.5925,-315.64,-0.4600385007667017
28.6928,-315.64,-0.45842101086645126
28.7933,-315.64,-0.4586231971039825
28.8941,-315.64,-0.46226254937954603
28.9947,-315.64,-0.45943194205410764
29.0958,-315.64,-0.4578144521538572
29.1961,-315.64,-0.45821882462891994
29.2971,-315.64,-0.45943194205410764
29.3971,-315.64,-0.4566013347286695
29.4968,-315.64,-0.45599477601607563
29.5983,-315.64,-0.4531641686906373
29.6985,-315.64,-0.45356854116569983
29.7985,-315.64,-0.4501313751276679
29.8979,-315.64,-0.45356854116569983
29.9993,-315.64,-0.4527597962155747
30.0992,-315.64,-0.44972700265260507
30.2002,-315.64,-0.4578144521538572
30.3007,-315.64,-0.45356854116569983
30.4006,-315.64,-0.4545794723533565
30.5005,-315.64,-0.45154667879038685
30.6022,-315.64,-0.44932263017754254
30.702,-315.64,-0.4499291888901366
30.803,-315.64,-0.45255760997804345
30.903,-315.64,-0.4555904035410129
31.0041,-315.64,-0.45073793384026173
31.1044,-315.64,-0.4440657880017288
31.2042,-315.64,-0.45821882462891994
31.3036,-315.64,-0.44932263017754254
31.4041,-315.64,-0.4505357476027304
31.5044,-315.64,-0.45033356136519914
31.6041,-315.64,-0.45215323750298086
31.7036,-315.64,-0.4523554237405122
31.8039,-315.64,-0.44750295403976076
31.9036,-315.64,-0.45255760997804345
32.0043,-315.64,-0.4485138852274174
32.104,-315.64,-0.44669420908963564
32.2041,-315.64,-0.44568327790197904
32.3051,-315.64,-0.45296198245310604
32.4047,-315.64,-0.44810951275235483
32.5057,-315.64,-0.4505357476027304
32.6057,-315.64,-0.44669420908963564
32.706,-315.64,-0.44366141552666605
32.8061,-315.64,-0.4426504843390096
32.9065,-315.64,-0.4426504843390096
33.0068,-315.64,-0.44002206325110277
33.1069,-315.64,-0.44689639532716696
33.2066,-315.64,-0.44608765037704184
33.3078,-315.64,-0.4440657880017288
33.4081,-315.64,-0.4430548568140722
33.5083,-315.64,-0.4450767191893852
33.6076,-315.64,-0.44103299443875915
33.7081,-315.64,-0.4408308082012279
33.8087,-315.64,-0.4418417393888845
33.9104,-315.64,-0.4406286219636966
34.0096,-315.64,-0.4386067595883836
34.1104,-315.64,-0.4430548568140722
34.211,-315.64,-0.4371914559256644
34.3109,-315.64,-0.438202387113321
34.4109,-315.64,-0.4412351806762904
34.5116,-315.64,-0.43638271097553927
34.6124,-315.64,-0.4371914559256644
34.7117,-315.64,-0.43355210365010116
34.8123,-315.64,-0.43597833850047674
34.9126,-315.64,-0.43456303483775754
35.0131,-315.64,-0.4349674073128201
35.113,-315.64,-0.436180524738008
35.2144,-315.64,-0.42991275137453766
35.3137,-315.64,-0.4311258687997253
35.414,-315.64,-0.43456303483775754
35.5141,-315.64,-0.4274865165241621
35.6151,-315.64,-0.4270821440490993
35.7156,-315.64,-0.42869963394934973
35.8147,-315.64,-0.423442791773536
35.9153,-315.64,-0.4260712128614429
36.0151,-315.64,-0.4280930752367559
36.1152,-315.64,-0.4270821440490993
36.2153,-315.64,-0.4293061926619436
36.3155,-315.64,-0.42869963394934973
36.4166,-315.64,-0.4280930752367559
36.5168,-315.64,-0.43355210365010116
36.6182,-315.64,-0.4295083788994751
36.7183,-315.64,-0.42869963394934973
36.8187,-315.64,-0.4282952614742872
36.919,-315.64,-0.4333499174125696
37.0194,-315.64,-0.4270821440490993
37.119,-315.64,-0.42627339909897416
37.2188,-315.64,-0.4291040064244123
37.3196,-315.64,-0.4256668403863803
37.4212,-315.64,-0.42627339909897416
37.5213,-315.64,-0.4246559091987237
37.6208,-315.64,-0.4236449780110673
37.7225,-315.64,-0.4232406055360045
37.8224,-315.64,-0.4236449780110673
37.9216,-315.64,-0.421420929398223
38.0216,-315.64,-0.4212187431606915
38.1232,-315.64,-0.42202748811081686
38.2241,-315.64,-0.42303841929847324
38.3255,-315.64,-0.4216231156357543
38.4247,-315.64,-0.422836233060942
38.5263,-315.64,-0.4256668403863803
38.6267,-315.64,-0.42526246791131755
38.7282,-315.64,-0.4216231156357543
38.8282,-315.64,-0.42061218444809767
38.9283,-315.64,-0.41980343949797255
39.0284,-315.64,-0.41838813583525336
39.129,-315.64,-0.4187925083103159
39.2301,-315.64,-0.41757939088512824
39.3305,-315.64,-0.41939906702290997
39.4312,-315.64,-0.4238471642485986
39.5322,-315.64,-0.42546465414884904
39.6327,-315.64,-0.423442791773536
39.7343,-315.64,-0.4181859495977221
39.8353,-315.64,-0.41838813583525336
39.9354,-315.64,-0.4189946945478472
40.0357,-315.64,-0.4187925083103159
40.136,-315.64,-0.4137378523720335
40.2357,-315.64,-0.414142224847096
40.3364,-315.64,-0.4133334798969709
40.4362,-315.64,-0.41434441108462733
40.5363,-315.64,-0.4149509697972211
40.6361,-315.64,-0.4133334798969709
40.7363,-315.64,-0.41939906702290997
40.8362,-315.64,-0.41434441108462733
40.937,-315.64,-0.41757939088512824
41.0372,-315.64,-0.41474878355968986
41.1371,-315.64,-0.41252473494684555
41.2367,-315.64,-0.41292910742190814
41.3384,-315.64,-0.4109072450465951
41.4377,-315.64,-0.4137378523720335
41.5379,-315.64,-0.41656845969747164
41.6383,-315.64,-0.41474878355968986
41.7385,-315.64,-0.4137378523720335
41.838,-315.64,-0.41394003860956474
41.9379,-315.64,-0.40928975514634486
42.0378,-315.64,-0.408076637721157
42.1379,-315.64,-0.40686352029596906
42.2377,-315.64,-0.4088853826712821
42.3377,-315.64,-0.4076722652460944
42.4378,-315.64,-0.4058525891083127
42.5385,-315.64,-0.4058525891083127
42.6378,-315.64,-0.4086831964337508
42.7381,-315.64,-0.4088853826712821
42.8385,-315.64,-0.40827882395868825
42.9377,-315.64,-0.4084810101962195
43.0378,-315.64,-0.41009850009647
43.1386,-315.64,-0.4086831964337508
43.2396,-315.64,-0.40747007900856314
43.3387,-315.64,-0.40362854049546837
43.4403,-315.64,-0.4086831964337508
43.5401,-315.64,-0.4076722652460944
43.6414,-315.64,-0.4090875689088136
43.7426,-315.64,-0.40463947168312475
43.8429,-315.64,-0.41191817623425175
43.9433,-315.64,-0.4052460303957188
44.0433,-315.64,-0.404841657920656
44.144,-315.64,-0.41151380375918917
44.2443,-315.64,-0.4076722652460944
44.3441,-315.64,-0.4058525891083127
44.4443,-315.64,-0.40180886435768665
44.5445,-315.64,-0.40383072673299963
44.6438,-315.64,-0.4042350992080622
44.7453,-315.64,-0.40100011940756153
44.8463,-315.64,-0.4044372854455935
44.945,-315.64,-0.4056504028707814
45.0449,-315.64,-0.40261760930781176
45.1456,-315.64,-0.3975629533695293
45.2454,-315.64,-0.40019137445743613
45.3453,-315.64,-0.40383072673299963
45.4454,-315.64,-0.4016066781201553
45.5456,-315.64,-0.4030219817828745
45.6454,-315.64,-0.40504384415818756
45.7451,-315.64,-0.40100011940756153
45.8453,-315.64,-0.4012023056450928
45.9461,-315.64,-0.40362854049546837
46.0463,-315.64,-0.40079793317003
46.1468,-315.64,-0.3997870019823736
46.2473,-315.64,-0.40362854049546837
46.3487,-315.64,-0.39594546346927884
46.4487,-315.64,-0.397360767131998
46.5503,-315.64,-0.3979673258445919
46.6504,-315.64,-0.3965520221818727
46.7516,-315.64,-0.3975629533695293
46.851,-315.64,-0.3985738845571857
46.9513,-315.64,-0.39634983594434137
47.0511,-315.64,-0.4022132368327492
47.151,-315.64,-0.40019137445743613
47.2508,-315.64,-0.39998918821990487
47.3521,-315.64,-0.3929126699063094
47.4532,-315.64,-0.3927104836687779
47.5529,-315.64,-0.3947323460440909
47.653,-315.64,-0.38987987634333976
47.7529,-315.64,-0.39453015980655964
47.8546,-315.64,-0.39493453228162245
47.9544,-315.64,-0.39230611119371533
48.0538,-315.64,-0.395338904756685
48.1563,-315.64,-0.38987987634333976
48.2559,-315.64,-0.39574327723174757
48.3561,-315.64,-0.3943279735690284
48.4573,-315.64,-0.39129518000605895
48.5574,-315.64,-0.3882623864430893
48.6573,-315.64,-0.3941257873314971
48.7571,-315.64,-0.39351922861890326
48.8569,-315.64,-0.3919017387186528
48.9568,-315.64,-0.38664489654283907
49.0578,-315.64,-0.3882623864430893
49.1583,-315.64,-0.38806020020555804
49.258,-315.64,-0.3931148561438407
49.358,-315.64,-0.3872514552554329
49.4578,-315.64,-0.3904864350559336
49.5587,-315.64,-0.3904864350559336
49.6579,-315.64,-0.38907113139321464
49.758,-315.64,-0.39351922861890326
49.8578,-315.64,-0.3927104836687779
49.9578,-315.64,-0.3910929937685277
50.0587,-315.64,-0.3872514552554329
50.1582,-315.64,-0.38260117179221304
50.2593,-315.64,-0.384623034167526
50.3592,-315.64,-0.38624052406777626
50.4598,-315.64,-0.3773443296163991
50.5604,-315.64,-0.38118586812949384
50.6601,-315.64,-0.3813880543670251
50.7606,-315.64,-0.38765582773049545
50.8605,-315.64,-0.3852295928801199
50.9604,-315.64,-0.3832077305048069
51.0605,-315.64,-0.384623034167526
51.1604,-315.64,-0.384623034167526
51.2605,-315.64,-0.37875963327911827
51.3605,-315.64,-0.3793661919917121
51.4602,-315.64,-0.378557447041587
51.5603,-315.64,-0.37613121219121115
51.6612,-315.64,-0.38199461307961896
51.7614,-315.64,-0.3791640057541808
51.8609,-315.64,-0.38765582773049545
51.9614,-315.64,-0.37875963327911827
52.0626,-315.64,-0.3821967993171502
52.1633,-315.64,-0.3799727507043059
52.2632,-315.64,-0.3793661919917121
52.3653,-315.64,-0.3781530745665242
52.4646,-315.64,-0.3757268397161486
52.5653,-315.64,-0.3767377709038052
52.6648,-315.64,-0.3809836818919626
52.7655,-315.64,-0.38118586812949384
52.8649,-315.64,-0.3799727507043059
52.9656,-315.64,-0.3836121029798694
53.0651,-315.64,-0.38118586812949384
53.1648,-315.64,-0.3773443296163991
53.2655,-315.64,-0.378557447041587
53.3657,-315.64,-0.37613121219121115
53.4648,-315.64,-0.3813880543670251
53.5664,-315.64,-0.37532246724108603
53.6665,-315.64,-0.3799727507043059
53.766,-315.64,-0.3773443296163991
53.8662,-315.64,-0.3737049773408356
53.9664,-315.64,-0.3737049773408356
54.0666,-315.64,-0.3735027911033043
54.1664,-315.64,-0.37552465347861735
54.2675,-315.64,-0.3726940461531792
