Time(s),Displacement(mm),Force(N)
0.0,-266.952,3.147166163029258
0.1366,-267.47,3.1554557987680414
0.2377,-268.119,3.1441333694662883
0.3381,-268.803,3.1204775796751263
0.4379,-269.486,3.1123901301738743
0.5383,-270.136,3.088734340382712
0.6388,-270.82,3.0747834899930515
0.7403,-271.503,3.058406404753016
0.8405,-272.153,3.059417335940673
0.9398,-272.802,3.0531495625772025
1.0417,-273.488,3.0418271332754494
1.1434,-274.171,3.0582042185154847
1.2433,-274.821,3.0646741781164866
1.3436,-275.505,3.0717506964300827
1.4435,-276.154,3.0612370120784544
1.5436,-276.84,3.0731660000928014
1.6455,-277.523,3.0751878624681144
1.7449,-278.173,3.088734340382712
1.8456,-278.857,3.079635959693803
1.9453,-279.506,3.085701546819742
2.0452,-280.19,3.1014720733471837
2.1464,-280.839,3.1123901301738743
2.2466,-281.523,3.1154229237368436
2.3475,-282.206,3.1194666484874696
2.4475,-282.856,3.120275393437595
2.5477,-283.539,3.1356415474899735
2.6488,-284.223,3.151816446492478
2.7495,-284.872,3.1501989565922277
2.8492,-285.556,3.1718328840080767
2.949,-286.206,3.180729078459454
3.0503,-286.889,3.1837618720224237
3.1501,-287.538,3.196095232511833
3.2511,-288.225,3.2053957994382727
3.3511,-288.874,3.2260187956664654
3.4509,-289.558,3.234106245167718
3.552,-290.241,3.247450536844784
3.6519,-290.891,3.2460352331820643
3.7524,-291.574,3.2711063266359464
3.852,-292.224,3.2771719137618853
3.9519,-292.907,3.2834396871253557
4.0533,-293.556,3.297390537515015
4.1536,-294.24,3.30588235949133
4.2529,-294.889,3.319428837405927
4.3529,-295.573,3.3196310236434585
4.4529,-296.257,3.3281228456197733
4.5546,-296.906,3.3341884327457123
4.6539,-297.589,3.327920659382242
4.7542,-298.239,3.3190244649308647
4.8545,-298.923,3.311745760379738
4.9537,-299.572,3.293953371476983
5.0549,-300.256,3.269893209210758
5.1555,-300.939,3.249472399220097
5.255,-301.589,3.2134832489395246
5.3551,-302.272,3.161723572131512
5.4551,-302.922,3.085701546819742
5.5555,-303.605,2.99835709220622
5.6567,-304.255,2.90211644314132
5.757,-304.939,2.7696844575583173
5.8568,-305.588,2.6073289088206812
5.9588,-306.271,2.4134323070281627
6.0603,-306.955,2.178087526541727
6.1609,-307.638,1.8837043646961515
6.2616,-308.288,1.541200878318126
6.3609,-308.972,1.1238884840535184
6.4619,-309.621,0.6370240240781432
6.5629,-310.305,0.06139980582652638
6.6629,-310.988,-0.6248202843547127
6.7638,-311.637,-1.4277018335915128
6.8641,-312.321,-2.3789880811762893
6.9657,-312.971,-3.487979594035481
7.0655,-313.654,-4.764381311570591
7.1652,-314.303,-6.219717849320903
7.2651,-314.99,-7.8744100172770795
7.3652,-315.639,-9.73209716771468
7.4656,-316.323,-11.897511771674926
7.5653,-316.806,-13.33626903794767
7.6656,-316.801,-13.17775502772313
7.7657,-316.801,-13.073426929156978
7.8652,-316.801,-13.010547009284743
7.9667,-316.801,-12.957169842576478
8.0661,-316.8,-12.914508546457375
8.1659,-316.8,-12.887213404390648
8.2668,-316.8,-12.860322634798985
8.3677,-316.8,-12.835655913820165
8.4677,-316.8,-12.809169516703566
8.5686,-316.8,-12.799060204827
8.6691,-316.8,-12.787535589287717
8.769,-316.8,-12.764081985734087
8.8696,-316.8,-12.756601094945427
8.9697,-316.8,-12.743661175743425
9.0706,-316.8,-12.734158422579453
9.1705,-316.8,-12.720409758427325
9.2705,-316.8,-12.71353542635126
9.371,-316.8,-12.700393320911726
9.4707,-316.8,-12.690890567747756
9.5701,-316.8,-12.682600932008972
9.6702,-316.8,-12.676333158645502
9.7704,-316.8,-12.662584494493373
9.8717,-316.8,-12.657125466080027
9.9724,-316.8,-12.649644575291369
10.0735,-316.8,-12.640950567077523
10.1733,-316.8,-12.651059878954088
10.2728,-316.8,-12.63569372490171
10.3735,-316.8,-12.629830324013302
10.4747,-316.8,-12.626190971737739
10.5758,-316.8,-12.616081659861171
10.6749,-316.8,-12.606578906697202
10.7749,-316.8,-12.606983279172265
10.8761,-316.8,-12.60961170026017
10.9769,-316.8,-12.602332995709045
11.0777,-316.8,-12.593234615020137
11.1784,-316.8,-12.58919089026951
11.2785,-316.8,-12.579283764630476
11.3783,-316.8,-12.574431294929724
11.4786,-316.8,-12.572611618791942
11.5787,-316.8,-12.570387570179099
11.678,-316.8,-12.569578825228973
11.7784,-316.8,-12.56128918949019
11.8779,-316.8,-12.558660768402284
11.978,-316.8,-12.558054209689688
12.0784,-316.8,-12.547136152862999
12.179,-316.8,-12.54289024187484
12.2794,-316.8,-12.547742711575593
12.3791,-316.8,-12.54127275197459
12.4789,-316.8,-12.535409351086184
12.5791,-316.8,-12.53480279237359
12.679,-316.8,-12.534398419898526
12.779,-316.8,-12.525906597922212
12.8798,-316.8,-12.523884735546899
12.9797,-316.8,-12.525300039209618
13.0797,-316.8,-12.518223520896022
13.1798,-316.8,-12.52246943188418
13.2805,-316.8,-12.51640384475824
13.381,-316.8,-12.505890160406611
13.481,-316.8,-12.507507650306865
13.5818,-316.8,-12.507305464069331
13.6817,-316.8,-12.50528360169402
13.7819,-316.8,-12.501644249418456
13.8829,-316.8,-12.49598303476758
13.9838,-316.8,-12.49760052466783
14.0829,-316.8,-12.496993965955236
14.1839,-316.8,-12.496589593480172
14.2848,-316.8,-12.489715261404108
14.3849,-316.8,-12.489513075166577
14.4859,-316.8,-12.493354613679672
14.5862,-316.8,-12.48668246784114
14.6862,-316.8,-12.477179714677169
14.7863,-316.8,-12.48364967427817
14.886,-316.8,-12.474146921114198
14.9878,-316.8,-12.477381900914699
15.0873,-316.8,-12.476168783489513
15.1877,-316.8,-12.47758408715223
15.287,-316.8,-12.47758408715223
15.3879,-316.8,-12.475360038539387
15.4886,-316.8,-12.472327244976418
15.5883,-316.8,-12.471720686263822
15.6882,-316.8,-12.470507568838636
15.7895,-316.8,-12.461409188149727
15.8908,-316.8,-12.462824491812446
15.9899,-316.8,-12.465452912900354
16.0905,-316.8,-12.452310807460819
16.1918,-316.8,-12.45878076706182
16.2916,-316.8,-12.454737042311194
16.3909,-316.8,-12.448267082710192
16.4924,-316.8,-12.454130483598599
16.5926,-316.8,-12.452917366173413
16.6926,-316.8,-12.450086758847974
16.7927,-316.8,-12.452917366173413
16.8928,-316.8,-12.439977446971408
16.9924,-316.8,-12.436540280933375
17.0919,-316.8,-12.44017963320894
17.1922,-316.8,-12.447053965285004
17.292,-316.8,-12.431283438757564
17.392,-316.8,-12.43269874242028
17.4937,-316.8,-12.430676880044969
17.5934,-316.8,-12.431283438757564
17.6932,-316.8,-12.415108539755058
17.7929,-316.8,-12.42602659658175
17.8936,-316.8,-12.42299380301878
17.9929,-316.8,-12.412682304904681
18.0936,-316.8,-12.415917284705184
18.1941,-316.8,-12.417736960842966
18.2958,-316.8,-12.41692821589284
18.3974,-316.8,-12.422185058068655
18.4972,-316.8,-12.409649511341714
18.5971,-316.8,-12.417736960842966
18.6989,-316.8,-12.412884491142215
18.7991,-316.8,-12.410256070054306
18.8991,-316.8,-12.404190482928367
18.9997,-316.8,-12.411469187479495
19.1009,-316.8,-12.40782983520393
19.2021,-316.8,-12.403988296690837
19.3025,-316.8,-12.4011576893654
19.4027,-316.8,-12.402168620553056
19.5027,-316.8,-12.398933640752555
19.6025,-316.8,-12.401562061840462
19.7037,-316.8,-12.395496474714522
19.8046,-316.8,-12.391452749963896
19.9048,-316.8,-12.390239632538707
20.0044,-316.8,-12.390239632538707
20.1044,-316.8,-12.383567486700176
20.2046,-316.8,-12.387206838975738
20.304,-316.8,-12.385184976600426
20.4042,-316.8,-12.382354369274987
20.5044,-316.8,-12.381747810562393
20.605,-316.8,-12.382354369274987
20.7055,-316.8,-12.380534693137207
20.805,-316.8,-12.377704085811768
20.9056,-316.8,-12.37325598858608
21.0057,-316.8,-12.38275874175005
21.1055,-316.8,-12.381343438087331
21.2067,-316.8,-12.376288782149048
21.3062,-316.8,-12.3843762316503
21.4062,-316.8,-12.384578417887832
21.5062,-316.8,-12.381949996799925
21.6078,-316.8,-12.375884409673986
21.7076,-316.8,-12.375682223436455
21.8082,-316.8,-12.374671292248799
21.9086,-316.8,-12.373660361061141
22.0085,-316.8,-12.370223195023108
22.1081,-316.8,-12.37507566472386
22.2086,-316.8,-12.368605705122858
22.3093,-316.8,-12.365168539084827
22.4092,-316.8,-12.36557291155989
22.5103,-316.8,-12.369010077597922
22.6109,-316.8,-12.364359794134701
22.7103,-316.8,-12.363348862947044
22.8111,-316.8,-12.367999146410266
22.9113,-316.8,-12.363753235422108
23.0117,-316.8,-12.361124814334202
23.1114,-316.8,-12.361933559284326
23.2114,-316.8,-12.358496393246293
23.3113,-316.8,-12.355867972158388
23.4111,-316.8,-12.352026433645293
23.5115,-316.8,-12.35323955107048
23.611,-316.8,-12.352228619882824
23.7118,-316.8,-12.355059227208262
23.811,-316.8,-12.362337931759388
23.9118,-316.8,-12.349398012557385
24.0116,-316.8,-12.34555647404429
24.1118,-316.8,-12.350004571269979
24.2111,-316.8,-12.345758660281822
24.3115,-316.8,-12.341108376818603
24.4112,-316.8,-12.342321494243789
24.5119,-316.8,-12.342119308006259
24.611,-316.8,-12.338884328205758
24.7109,-316.8,-12.351217688695167
24.8113,-316.8,-12.338682141968226
24.911,-316.8,-12.336458093355382
25.0118,-316.8,-12.337064652067975
25.1118,-316.8,-12.338075583255634
25.2111,-316.8,-12.33928870068082
25.3118,-316.8,-12.339895259393414
25.4117,-316.8,-12.338277769493164
25.5111,-316.8,-12.337064652067975
25.6135,-316.8,-12.33767121078057
25.7129,-316.8,-12.33625590711785
25.812,-316.8,-12.329179388804254
25.9127,-316.8,-12.3314034374171
26.0128,-316.8,-12.32978594751685
26.1131,-316.8,-12.329381575041786
26.2146,-316.8,-12.327157526428941
26.3147,-316.8,-12.325540036528691
26.4151,-316.8,-12.32533785029116
26.5156,-316.8,-12.329381575041786
26.6168,-316.8,-12.331201251179568
26.7163,-316.8,-12.328168457616599
26.8164,-316.8,-12.325944409003755
26.9162,-316.8,-12.321698498015596
27.0173,-316.8,-12.323113801678316
27.1177,-316.8,-12.321496311778066
27.2176,-316.8,-12.31563291088966
27.3172,-316.8,-12.31907007692769
27.4179,-316.8,-12.321496311778066
27.5176,-316.8,-12.32230505672819
27.6181,-316.8,-12.316643842077315
27.7186,-316.8,-12.31603728336472
27.8187,-316.8,-12.321496311778066
27.9184,-316.8,-12.313408862276814
28.0187,-316.8,-12.314824165939532
28.1187,-316.8,-12.316643842077315
28.2181,-316.8,-12.318261331977565
28.3199,-316.8,-12.310173882476311
28.4196,-316.8,-12.312397931089157
28.5191,-316.8,-12.3113869999015
28.6194,-316.8,-12.312397931089157
28.7196,-316.8,-12.310173882476311
28.8193,-316.8,-12.304714854062967
28.9191,-316.8,-12.311993558614095
29.0195,-316.8,-12.311993558614095
29.1197,-316.8,-12.306332343963216
29.2191,-316.8,-12.307141088913344
29.3198,-316.8,-12.3113869999015
29.4207,-316.8,-12.309365137526187
29.5201,-316.8,-12.30794983386347
29.6202,-316.8,-12.308354206338532
29.7205,-316.8,-12.302895177925185
29.8218,-316.8,-12.303097364162717
29.9216,-316.8,-12.301479874262467
30.0228,-316.8,-12.296829590799247
30.1224,-316.8,-12.300671129312342
30.2232,-316.8,-12.30188424673753
30.3236,-316.8,-12.30188424673753
30.4232,-316.8,-12.303703922875311
30.5232,-316.8,-12.304714854062967
30.6239,-316.8,-12.298649266937028
30.7232,-316.8,-12.299458011887154
30.8248,-316.8,-12.293998983473807
30.925,-316.8,-12.285304975259962
31.0259,-316.8,-12.294807728423935
31.1259,-316.8,-12.293594610998746
31.2256,-316.8,-12.29258367981109
31.3261,-316.8,-12.295414287136527
31.4261,-316.8,-12.292988052286152
31.5268,-316.8,-12.293392424761215
31.6278,-316.8,-12.295009914661465
31.7274,-316.8,-12.2881355825854
31.829,-316.8,-12.288944327535527
31.9291,-316.8,-12.283687485359712
32.0299,-316.8,-12.296020845849121
32.1294,-316.8,-12.28955088624812
32.2295,-316.8,-12.284496230309838
32.33,-316.8,-12.28793339634787
32.4321,-316.8,-12.292179307336026
32.5325,-316.8,-12.28975307248565
32.6337,-316.8,-12.288944327535527
32.7348,-316.8,-12.2881355825854
32.8347,-316.8,-12.287124651397745
32.9359,-316.8,-12.284496230309838
33.0358,-316.8,-12.280048133084149
33.136,-316.8,-12.282272181696992
33.2357,-316.8,-12.278430643183897
33.3369,-316.8,-12.277621898233773
33.4364,-316.8,-12.281059064271806
33.5364,-316.8,-12.281665622984399
33.6366,-316.8,-12.282272181696992
33.7367,-316.8,-12.277621898233773
33.8361,-316.8,-12.28025031932168
33.9363,-316.8,-12.274791290908336
34.0362,-316.8,-12.275397849620928
34.1379,-316.8,-12.278026270708835
34.2385,-316.8,-12.287731210110337
34.3384,-316.8,-12.276813153283648
34.4398,-316.8,-12.277824084471304
34.5391,-316.8,-12.273375987245617
34.64,-316.8,-12.277015339521178
34.7391,-316.8,-12.274184732195742
34.8407,-316.8,-12.26306448913152
34.9414,-316.8,-12.26003169556855
35.0422,-316.8,-12.274993477145866
35.1437,-316.8,-12.271354124870303
35.2449,-316.8,-12.270545379920177
35.3452,-316.8,-12.271556311107833
35.4458,-316.8,-12.27074756615771
35.547,-316.8,-12.268119145069802
35.6464,-316.8,-12.262862302893987
35.7463,-316.8,-12.260233881806082
35.8462,-316.8,-12.268725703782396
35.9465,-316.8,-12.268725703782396
36.0464,-316.8,-12.267108213882146
36.1465,-316.8,-12.271960683582897
36.2479,-316.8,-12.259222950618424
36.3477,-316.8,-12.265895096456958
36.4478,-316.8,-12.265086351506833
36.5482,-316.8,-12.260638254281144
36.6486,-316.8,-12.264681979031769
36.7485,-316.8,-12.261042626756208
36.8491,-316.8,-12.259222950618424
36.9494,-316.8,-12.264884165269303
37.0496,-316.8,-12.261244812993738
37.1498,-316.8,-12.252955177254954
37.2503,-316.8,-12.259222950618424
37.351,-316.8,-12.264277606556707
37.4509,-316.8,-12.257403274480643
37.5508,-316.8,-12.249518011216923
37.6509,-316.8,-12.250528942404578
37.7507,-316.8,-12.267714772594738
37.8507,-316.8,-12.25376392220508
37.9503,-316.8,-12.254774853392737
38.0502,-316.8,-12.251944246067298
38.1502,-316.8,-12.256796715768049
38.2503,-316.8,-12.257807646955705
38.3507,-316.8,-12.249113638741859
38.4502,-316.8,-12.256796715768049
38.5508,-316.8,-12.254168294680143
38.6513,-316.8,-12.258616391905832
38.752,-316.8,-12.248507080029265
38.8518,-316.8,-12.250326756167048
38.9529,-316.8,-12.251944246067298
39.0526,-316.8,-12.244867727753702
39.1523,-316.8,-12.241632747953203
39.2528,-316.8,-12.248304893791735
39.3525,-316.8,-12.248911452504329
39.4539,-316.8,-12.250528942404578
39.5534,-316.8,-12.245676472703828
39.6538,-316.8,-12.246889590129015
39.7536,-316.8,-12.246485217653953
39.8532,-316.8,-12.244261169041108
39.9538,-316.8,-12.241430561715669
40.0535,-316.8,-12.24749614884161
40.1541,-316.8,-12.251742059829768
40.2546,-316.8,-12.250933314879642
40.3559,-316.8,-12.242441492903328
40.4569,-316.8,-12.24749614884161
40.5576,-316.8,-12.239408699340357
40.6581,-316.8,-12.24304805161592
40.7583,-316.8,-12.243452424090984
40.8599,-316.8,-12.248507080029265
40.9599,-316.8,-12.244867727753702
41.0599,-316.8,-12.242239306665795
41.1591,-316.8,-12.23698246448998
41.2594,-316.8,-12.242239306665795
41.3591,-316.8,-12.237184650727514
41.4599,-316.8,-12.237791209440108
41.5608,-316.8,-12.241228375478139
41.6618,-316.8,-12.239004326865293
41.7622,-316.8,-12.234758415877138
41.8628,-316.8,-12.235971533302324
41.9626,-316.8,-12.23657809201492
42.0639,-316.8,-12.234556229639605
42.1639,-316.8,-12.230108132413918
42.2649,-316.8,-12.232534367264293
42.3649,-316.8,-12.232736553501825
42.4649,-316.8,-12.23657809201492
42.5659,-316.8,-12.231119063601573
42.6651,-316.8,-12.236173719539856
42.766,-316.8,-12.229501573701324
42.8653,-316.8,-12.23031031865145
42.9653,-316.8,-12.22747971132601
43.0666,-316.8,-12.231725622314169
43.1664,-316.8,-12.228692828751198
43.2664,-316.8,-12.22889501498873
43.3675,-316.8,-12.219392261824758
43.4681,-316.8,-12.223840359050445
43.5678,-316.8,-12.230108132413918
43.6671,-316.8,-12.228490642513666
43.769,-316.8,-12.226670966375885
43.8686,-316.8,-12.231321249839105
43.9694,-316.8,-12.228288456276136
44.0693,-316.8,-12.225457848950699
44.17,-316.8,-12.224851290238103
44.2707,-316.8,-12.225255662713165
44.3704,-316.8,-12.223638172812915
44.471,-316.8,-12.228288456276136
44.5711,-316.8,-12.224446917763041
44.6711,-316.8,-12.225660035188229
44.7717,-316.8,-12.228288456276136
44.8717,-316.8,-12.222425055387728
44.9719,-316.8,-12.22100975172501
45.0717,-316.8,-12.222222869150196
45.1716,-316.8,-12.22262724162526
45.2712,-316.8,-12.218785703112164
45.3715,-316.8,-12.22262724162526
45.4714,-316.8,-12.228692828751198
45.5723,-316.8,-12.22586222142576
45.6722,-316.8,-12.220605379249946
45.7726,-316.8,-12.219998820537352
45.8725,-316.8,-12.21656165449932
45.9731,-316.8,-12.21029388113585
46.0729,-316.8,-12.213933233411414
46.1731,-316.8,-12.215550723311663
46.2733,-316.8,-12.21352886093635
46.3734,-316.8,-12.216966026974381
46.4734,-316.8,-12.214135419648946
46.5739,-316.8,-12.217572585686977
46.6733,-316.8,-12.21959444806229
46.7742,-316.8,-12.216763840736851
46.8748,-316.8,-12.216359468261789
46.9749,-316.8,-12.215348537074131
47.0749,-316.8,-12.212720115986226
47.1749,-316.8,-12.214539792124006
47.2751,-316.8,-12.21069825361091
47.3753,-316.8,-12.21029388113585
47.4757,-316.8,-12.209080763710661
47.5759,-316.8,-12.205239225197566
47.6753,-316.8,-12.20564359767263
47.7752,-316.8,-12.212720115986226
47.8761,-316.8,-12.21170918479857
47.9753,-316.8,-12.209485136185725
48.0767,-316.8,-12.212315743511162
48.177,-316.8,-12.217370399449445
48.2764,-316.8,-12.211506998561036
48.3771,-316.8,-12.20281299034719
48.4764,-316.8,-12.210091694898319
48.5766,-316.8,-12.20564359767263
48.6764,-316.8,-12.2086763912356
48.7771,-316.8,-12.2086763912356
48.8776,-316.8,-12.207665460047942
48.9775,-316.8,-12.210091694898319
49.0779,-316.8,-12.208878577473131
49.1791,-316.8,-12.198162706883972
49.2785,-316.8,-12.200791127971877
49.3786,-316.8,-12.195938658271126
49.4799,-316.8,-12.205037038960036
49.5792,-316.8,-12.203823921534847
49.6799,-316.8,-12.20402610777238
49.7793,-316.8,-12.206452342622756
49.8799,-316.8,-12.206452342622756
49.9803,-316.8,-12.202408617872129
50.0807,-316.8,-12.203015176584723
50.1806,-316.8,-12.204430480247442
50.2819,-316.8,-12.200386755496815
50.3822,-316.8,-12.202004245397067
50.4827,-316.8,-12.20422829400991
50.5832,-316.8,-12.201397686684471
50.6841,-316.8,-12.196949589458784
50.7843,-316.8,-12.199982383021752
50.8842,-316.8,-12.197353961933846
50.9852,-316.8,-12.200993314209411
51.0862,-316.8,-12.200791127971877
51.1864,-316.8,-12.197151775696316
51.287,-316.8,-12.193512423420751
51.3865,-316.8,-12.191490561045438
51.4866,-316.8,-12.188862139957532
51.5866,-316.8,-12.189873071145188
51.6865,-316.8,-12.194118982133345
51.787,-316.8,-12.194523354608407
51.8863,-316.8,-12.200993314209411
51.9865,-316.8,-12.198364893121502
52.088,-316.8,-12.19492772708347
52.1879,-316.8,-12.192097119758031
52.2876,-316.8,-12.193108050945689
52.3881,-316.8,-12.192905864708157
52.4882,-316.8,-12.195129913321002
52.589,-316.8,-12.189873071145188
52.6883,-316.8,-12.19492772708347
52.789,-316.8,-12.195129913321002
52.8888,-316.8,-12.192501492233095
52.99,-316.8,-12.192501492233095
53.0909,-316.8,-12.192703678470627
53.1912,-316.8,-12.186638091344687
53.2912,-316.8,-12.187446836294813
53.392,-316.8,-12.189064326195062
53.4912,-316.8,-12.192299305995563
53.5924,-316.8,-12.189670884907656
53.6931,-316.8,-12.185222787681967
53.7931,-316.8,-12.188862139957532
53.8927,-316.8,-12.196140844508658
53.9925,-316.8,-12.188053395007406
54.0931,-316.8,-12.186435905107157
54.1933,-316.8,-12.184211856494311
54.2941,-316.8,-12.186233718869625
54.3942,-316.8,-12.189873071145188
54.495,-316.8,-12.184414042731843
54.5959,-316.8,-12.188457767482468
54.6961,-316.8,-12.185627160157031
54.7958,-316.8,-12.186435905107157
54.8955,-316.8,-12.183605297781718
54.9952,-316.8,-12.181381249168872
55.0961,-316.8,-12.184009670256781
55.1965,-316.8,-12.18077469045628
55.2971,-316.8,-12.182796552831592
55.3965,-316.8,-12.182796552831592
55.498,-316.8,-12.186638091344687
55.5977,-316.8,-12.180370317981216
55.698,-316.8,-12.186638091344687
55.7977,-316.8,-12.183807484019248
55.8992,-316.8,-12.183200925306656
55.9987,-316.8,-12.182796552831592
56.0983,-316.8,-12.180370317981216
